RPeakID,RPeakTime,ParticipantID
1,0.232,31
2,0.747,31
3,1.53,31
4,2.372,31
5,3.257,31
6,4.159,31
7,5.06,31
8,5.953,31
9,6.818,31
10,7.591,31
11,8.294,31
12,8.984,31
13,9.695,31
14,10.462,31
15,11.32,31
16,12.209,31
17,12.661,31
18,13.115,31
19,14.028,31
20,14.928,31
21,15.827,31
22,16.712,31
23,17.576,31
24,18.424,31
25,19.277,31
26,20.146,31
27,21.022,31
28,21.848,31
29,22.696,31
30,23.518,31
31,24.355,31
32,25.164,31
33,25.936,31
34,26.742,31
35,27.549,31
36,28.36,31
37,29.141,31
38,29.901,31
39,30.676,31
40,31.433,31
41,32.232,31
42,33,31
43,33.795,31
44,34.615,31
45,35.456,31
46,36.277,31
47,37.075,31
48,37.885,31
49,38.686,31
50,39.458,31
51,40.259,31
52,41.068,31
53,41.865,31
54,42.683,31
55,43.518,31
56,44.346,31
57,45.154,31
58,45.981,31
59,46.798,31
60,47.589,31
61,48.351,31
62,49.117,31
63,49.892,31
64,50.659,31
65,51.422,31
66,52.213,31
67,53.03,31
68,53.84,31
69,54.649,31
70,55.466,31
71,56.272,31
72,57.043,31
73,57.832,31
74,58.627,31
75,59.4,31
76,60.183,31
77,61.009,31
78,61.847,31
79,62.675,31
80,63.497,31
1,0.01,32
2,0.547,32
3,1.317,32
4,2.063,32
5,2.809,32
6,3.514,32
7,4.212,32
8,4.897,32
9,5.577,32
10,6.248,32
11,6.934,32
12,7.605,32
13,8.276,32
14,8.933,32
15,9.596,32
16,10.279,32
17,10.966,32
18,11.625,32
19,12.301,32
20,12.986,32
21,13.668,32
22,14.381,32
23,15.095,32
24,15.782,32
25,16.497,32
26,17.208,32
27,17.903,32
28,18.597,32
29,19.322,32
30,20.025,32
31,20.752,32
32,21.485,32
33,22.182,32
34,22.883,32
35,23.592,32
36,24.285,32
37,24.99,32
38,25.7,32
39,26.395,32
40,27.134,32
41,27.847,32
42,28.546,32
43,29.281,32
44,30.026,32
45,30.744,32
46,31.431,32
47,32.142,32
48,32.857,32
49,33.574,32
50,34.255,32
51,34.971,32
52,35.71,32
53,36.419,32
54,37.12,32
55,37.846,32
56,38.57,32
57,39.253,32
58,39.902,32
59,40.551,32
60,41.214,32
61,41.909,32
62,42.586,32
63,43.254,32
64,43.943,32
65,44.626,32
66,45.292,32
67,45.95,32
68,46.618,32
69,47.29,32
70,47.97,32
71,48.617,32
72,49.271,32
73,49.959,32
74,50.661,32
75,51.343,32
76,52.026,32
77,52.719,32
78,53.414,32
79,54.072,32
80,54.749,32
81,55.456,32
82,56.179,32
83,56.919,32
84,57.64,32
85,58.313,32
86,58.976,32
87,59.748,32
88,60.487,32
89,61.23,32
90,61.953,32
91,62.672,32
92,63.35,32
93,64.035,32
94,64.755,32
95,65.516,32
96,66.313,32
97,67.096,32
98,67.861,32
1,0.01,33
2,0.472,33
3,1.3,33
4,2.082,33
5,2.817,33
6,3.531,33
7,4.218,33
8,4.9,33
9,5.574,33
10,6.259,33
11,6.951,33
12,7.651,33
13,8.36,33
14,9.023,33
15,9.658,33
16,10.286,33
17,10.904,33
18,11.538,33
19,12.187,33
20,12.854,33
21,13.54,33
22,14.24,33
23,14.935,33
24,15.604,33
25,16.253,33
26,16.906,33
27,17.579,33
28,18.251,33
29,18.938,33
30,19.615,33
31,20.297,33
32,20.977,33
33,21.66,33
34,22.357,33
35,23.042,33
36,23.708,33
37,24.333,33
38,24.939,33
39,25.537,33
40,26.119,33
41,26.701,33
42,27.295,33
43,27.897,33
44,28.516,33
45,29.137,33
46,29.764,33
47,30.39,33
48,31.03,33
49,31.69,33
50,32.355,33
51,32.999,33
52,33.648,33
53,34.31,33
54,34.987,33
55,35.64,33
56,36.269,33
57,36.891,33
58,37.522,33
59,38.161,33
60,38.804,33
61,39.442,33
62,40.071,33
63,40.719,33
64,41.381,33
65,42.035,33
66,42.676,33
67,43.322,33
68,43.993,33
69,44.673,33
70,45.351,33
71,46.005,33
72,46.649,33
73,47.287,33
74,47.914,33
75,48.544,33
76,49.168,33
77,49.793,33
78,50.421,33
79,51.056,33
80,51.685,33
81,52.321,33
82,52.977,33
83,53.632,33
84,54.266,33
85,54.894,33
86,55.508,33
87,56.121,33
88,56.719,33
89,57.309,33
90,57.885,33
91,58.458,33
92,59.04,33
93,59.644,33
94,60.275,33
95,60.902,33
96,61.537,33
1,0.147,34
2,0.876,34
3,1.559,34
4,2.224,34
5,2.909,34
6,3.603,34
7,4.302,34
8,5.023,34
9,5.756,34
10,6.479,34
11,7.191,34
12,7.899,34
13,8.553,34
14,9.226,34
15,9.909,34
16,10.593,34
17,11.287,34
18,12.036,34
19,12.772,34
20,13.541,34
21,14.314,34
22,15.065,34
23,15.818,34
24,16.561,34
25,17.3,34
26,18.033,34
27,18.776,34
28,19.485,34
29,20.225,34
30,20.928,34
31,21.635,34
32,22.339,34
33,23.014,34
34,23.694,34
35,24.38,34
36,25.054,34
37,25.736,34
38,26.41,34
39,27.063,34
40,27.751,34
41,28.425,34
42,29.109,34
43,29.816,34
44,30.515,34
45,31.196,34
46,31.882,34
47,32.571,34
48,33.258,34
49,33.948,34
50,34.637,34
51,35.309,34
52,35.997,34
53,36.693,34
54,37.376,34
55,38.071,34
56,38.787,34
57,39.467,34
58,40.132,34
59,40.812,34
60,41.477,34
61,42.122,34
62,42.787,34
63,43.446,34
64,44.084,34
65,44.724,34
66,45.378,34
67,46.027,34
68,46.675,34
69,47.347,34
70,48.025,34
71,48.703,34
72,49.401,34
73,50.094,34
74,50.76,34
75,51.45,34
76,52.159,34
77,52.827,34
78,53.508,34
79,54.194,34
80,54.881,34
81,55.579,34
82,56.279,34
83,56.968,34
84,57.692,34
85,58.434,34
86,59.144,34
87,59.865,34
88,60.571,34
89,61.261,34
90,61.782,34
1,0.247,35
2,0.826,35
3,1.425,35
4,2.06,35
5,2.736,35
6,3.442,35
7,4.135,35
8,4.817,35
9,5.466,35
10,6.093,35
11,6.697,35
12,7.295,35
13,7.885,35
14,8.47,35
15,9.038,35
16,9.602,35
17,10.163,35
18,10.726,35
19,11.3,35
20,11.886,35
21,12.477,35
22,13.075,35
23,13.69,35
24,14.33,35
25,14.985,35
26,15.62,35
27,16.218,35
28,16.802,35
29,17.382,35
30,17.964,35
31,18.559,35
32,19.155,35
33,19.734,35
34,20.308,35
35,20.875,35
36,21.45,35
37,22.035,35
38,22.645,35
39,23.266,35
40,23.913,35
41,24.542,35
42,25.148,35
43,25.755,35
44,26.363,35
45,26.975,35
46,27.574,35
47,28.159,35
48,28.734,35
49,29.299,35
50,29.857,35
51,30.409,35
52,30.959,35
53,31.517,35
54,32.087,35
55,32.666,35
56,33.247,35
57,33.837,35
58,34.424,35
59,35.012,35
60,35.59,35
61,36.171,35
62,36.753,35
63,37.333,35
64,37.909,35
65,38.489,35
66,39.07,35
67,39.667,35
68,40.269,35
69,40.861,35
70,41.441,35
71,42.024,35
72,42.624,35
73,43.236,35
74,43.839,35
75,44.433,35
76,45.015,35
77,45.595,35
78,46.19,35
79,46.816,35
80,47.475,35
81,48.155,35
82,48.82,35
83,49.438,35
84,50.029,35
85,50.599,35
86,51.163,35
87,51.722,35
88,52.283,35
89,52.855,35
90,53.441,35
91,54.027,35
92,54.603,35
93,55.174,35
94,55.758,35
95,56.362,35
96,56.97,35
97,57.578,35
98,58.177,35
99,58.787,35
100,59.408,35
101,60.012,35
102,60.611,35
103,61.207,35
104,61.802,35
105,62.486,35
1,0.2,36
2,0.687,36
3,1.573,36
4,2.365,36
5,3.155,36
6,3.944,36
7,4.738,36
8,5.52,36
9,6.335,36
10,7.193,36
11,8.066,36
12,8.937,36
13,9.736,36
14,10.526,36
15,11.34,36
16,12.155,36
17,12.998,36
18,13.797,36
19,14.625,36
20,15.489,36
21,16.372,36
22,17.232,36
23,18.03,36
24,18.869,36
25,19.73,36
26,20.612,36
27,21.487,36
28,22.288,36
29,23.104,36
30,23.936,36
31,24.776,36
32,25.602,36
33,26.402,36
34,27.233,36
35,28.085,36
36,28.934,36
37,29.726,36
38,30.525,36
39,31.343,36
40,32.171,36
41,32.96,36
42,33.724,36
43,34.52,36
44,35.356,36
45,36.202,36
46,36.98,36
47,37.774,36
48,38.579,36
49,39.394,36
50,40.187,36
51,40.921,36
52,41.677,36
53,42.468,36
54,43.281,36
55,44.06,36
56,44.858,36
57,45.698,36
58,46.565,36
59,47.383,36
60,48.15,36
61,48.917,36
62,49.71,36
63,50.513,36
64,51.296,36
65,52.036,36
66,52.802,36
67,53.585,36
68,54.396,36
69,55.171,36
70,55.945,36
71,56.737,36
72,57.547,36
73,58.338,36
74,59.08,36
75,59.87,36
76,60.567,36
1,0.014,37
2,0.587,37
3,1.149,37
4,1.697,37
5,2.251,37
6,2.808,37
7,3.4,37
8,4.048,37
9,4.775,37
10,5.52,37
11,6.262,37
12,7.003,37
13,7.739,37
14,8.464,37
15,9.156,37
16,9.845,37
17,10.518,37
18,11.17,37
19,11.806,37
20,12.427,37
21,13.042,37
22,13.649,37
23,14.24,37
24,14.831,37
25,15.42,37
26,16.009,37
27,16.602,37
28,17.201,37
29,17.823,37
30,18.472,37
31,19.129,37
32,19.793,37
33,20.462,37
34,21.133,37
35,21.798,37
36,22.45,37
37,23.093,37
38,23.731,37
39,24.358,37
40,24.974,37
41,25.593,37
42,26.213,37
43,26.837,37
44,27.463,37
45,28.101,37
46,28.749,37
47,29.399,37
48,30.04,37
49,30.68,37
50,31.32,37
51,31.95,37
52,32.575,37
53,33.195,37
54,33.81,37
55,34.421,37
56,35.034,37
57,35.65,37
58,36.277,37
59,36.908,37
60,37.542,37
61,38.181,37
62,38.832,37
63,39.483,37
64,40.133,37
65,40.784,37
66,41.431,37
67,42.064,37
68,42.692,37
69,43.312,37
70,43.926,37
71,44.535,37
72,45.137,37
73,45.74,37
74,46.352,37
75,46.974,37
76,47.603,37
77,48.251,37
78,48.915,37
79,49.578,37
80,50.233,37
81,50.882,37
82,51.534,37
83,52.18,37
84,52.806,37
85,53.427,37
86,54.048,37
87,54.664,37
88,55.269,37
89,55.868,37
90,56.47,37
91,57.087,37
92,57.716,37
93,58.346,37
94,58.979,37
95,59.62,37
96,60.259,37
97,60.888,37
98,61.388,37
99,61.942,37
1,0.471,38
2,1.038,38
3,1.591,38
4,2.13,38
5,2.671,38
6,3.206,38
7,3.76,38
8,4.321,38
9,4.882,38
10,5.436,38
11,5.99,38
12,6.554,38
13,7.125,38
14,7.715,38
15,8.309,38
16,8.893,38
17,9.459,38
18,10.023,38
19,10.591,38
20,11.164,38
21,11.749,38
22,12.335,38
23,12.892,38
24,13.447,38
25,14.008,38
26,14.576,38
27,15.132,38
28,15.673,38
29,16.204,38
30,16.743,38
31,17.281,38
32,17.826,38
33,18.395,38
34,18.986,38
35,19.605,38
36,20.229,38
37,20.816,38
38,21.385,38
39,21.948,38
40,22.518,38
41,23.102,38
42,23.686,38
43,24.261,38
44,24.827,38
45,25.388,38
46,25.958,38
47,26.551,38
48,27.151,38
49,27.738,38
50,28.314,38
51,28.893,38
52,29.484,38
53,30.084,38
54,30.684,38
55,31.254,38
56,31.813,38
57,32.364,38
58,32.911,38
59,33.457,38
60,34.002,38
61,34.543,38
62,35.081,38
63,35.635,38
64,36.213,38
65,36.827,38
66,37.456,38
67,38.049,38
68,38.644,38
69,39.246,38
70,39.845,38
71,40.436,38
72,41.004,38
73,41.562,38
74,42.113,38
75,42.662,38
76,43.215,38
77,43.783,38
78,44.354,38
79,44.936,38
80,45.531,38
81,46.163,38
82,46.835,38
83,47.517,38
84,48.138,38
85,48.737,38
86,49.322,38
87,49.902,38
88,50.484,38
89,51.049,38
90,51.602,38
91,52.151,38
92,52.696,38
93,53.245,38
94,53.792,38
95,54.334,38
96,54.874,38
97,55.429,38
98,56.001,38
99,56.59,38
100,57.156,38
101,57.719,38
102,58.29,38
103,58.864,38
104,59.447,38
105,60.028,38
106,60.595,38
107,61.156,38
108,61.712,38
109,62.258,38
110,62.797,38
111,63.326,38
112,63.852,38
113,64.649,38
1,0.123,39
2,0.865,39
3,1.603,39
4,2.339,39
5,3.064,39
6,3.784,39
7,4.499,39
8,5.217,39
9,5.931,39
10,6.653,39
11,7.378,39
12,8.112,39
13,8.842,39
14,9.573,39
15,10.296,39
16,11.015,39
17,11.73,39
18,12.434,39
19,13.119,39
20,13.795,39
21,14.458,39
22,15.105,39
23,15.748,39
24,16.385,39
25,17.012,39
26,17.632,39
27,18.248,39
28,18.865,39
29,19.477,39
30,20.084,39
31,20.685,39
32,21.165,39
33,21.904,39
34,22.51,39
35,23.103,39
36,23.694,39
37,24.229,39
38,24.875,39
39,25.464,39
40,26.063,39
41,26.663,39
42,27.273,39
43,27.894,39
44,28.523,39
45,29.16,39
46,29.794,39
47,30.427,39
48,31.057,39
49,31.678,39
50,32.292,39
51,32.908,39
52,33.515,39
53,34.119,39
54,34.727,39
55,35.334,39
56,35.931,39
57,36.524,39
58,37.111,39
59,37.708,39
60,38.292,39
61,38.869,39
62,39.441,39
63,40.009,39
64,40.589,39
65,41.166,39
66,41.746,39
67,42.324,39
68,42.907,39
69,43.502,39
70,44.039,39
71,44.728,39
72,45.366,39
73,46.001,39
74,46.642,39
75,47.293,39
76,47.953,39
77,48.608,39
78,49.261,39
79,49.92,39
80,50.575,39
81,51.22,39
82,51.863,39
83,52.507,39
84,53.148,39
85,53.789,39
86,54.423,39
87,55.07,39
88,55.714,39
89,56.355,39
90,56.991,39
91,57.633,39
92,58.273,39
93,58.916,39
94,59.551,39
95,60.181,39
96,60.82,39
97,61.456,39
98,62.099,39
99,62.746,39
100,63.395,39
101,64.042,39
102,64.697,39
1,0.399,40
2,1.291,40
3,2.144,40
4,3.026,40
5,3.909,40
6,4.746,40
7,5.638,40
8,6.543,40
9,7.407,40
10,8.296,40
11,9.199,40
12,10.056,40
13,10.933,40
14,11.799,40
15,12.637,40
16,13.498,40
17,14.393,40
18,15.254,40
19,15.708,40
20,16.164,40
21,17.094,40
22,17.98,40
23,18.881,40
24,19.791,40
25,20.633,40
26,21.498,40
27,22.376,40
28,23.224,40
29,24.096,40
30,24.929,40
31,25.705,40
32,26.482,40
33,27.272,40
34,28.089,40
35,28.871,40
36,29.68,40
37,30.508,40
38,31.335,40
39,32.148,40
40,32.967,40
41,33.77,40
42,34.567,40
43,35.378,40
44,36.193,40
45,36.973,40
46,37.767,40
47,38.569,40
48,39.344,40
49,40.126,40
50,40.926,40
51,41.724,40
52,42.505,40
53,43.308,40
54,44.1,40
55,44.866,40
56,45.64,40
57,46.419,40
58,47.169,40
59,47.921,40
60,48.674,40
61,49.418,40
62,50.157,40
63,50.929,40
64,51.706,40
65,52.465,40
66,53.261,40
67,54.084,40
68,54.86,40
69,55.658,40
70,56.454,40
71,57.211,40
72,57.964,40
73,58.721,40
74,59.45,40
75,60.186,40
76,60.936,40
1,0.321,41
2,0.993,41
3,1.618,41
4,2.203,41
5,2.746,41
6,3.308,41
7,3.853,41
8,4.41,41
9,4.981,41
10,5.607,41
11,6.267,41
12,6.934,41
13,7.587,41
14,8.226,41
15,8.846,41
16,9.464,41
17,10.06,41
18,10.652,41
19,11.246,41
20,11.842,41
21,12.424,41
22,13.017,41
23,13.623,41
24,14.212,41
25,14.797,41
26,15.389,41
27,15.977,41
28,16.556,41
29,17.133,41
30,17.724,41
31,18.315,41
32,18.894,41
33,19.469,41
34,20.044,41
35,20.614,41
36,21.173,41
37,21.73,41
38,22.278,41
39,22.844,41
40,23.419,41
41,23.991,41
42,24.577,41
43,25.184,41
44,25.777,41
45,26.358,41
46,26.943,41
47,27.52,41
48,28.086,41
49,28.644,41
50,29.208,41
51,29.773,41
52,30.327,41
53,30.874,41
54,31.42,41
55,31.972,41
56,32.528,41
57,33.1,41
58,33.682,41
59,34.308,41
60,34.94,41
61,35.571,41
62,36.205,41
63,36.827,41
64,37.423,41
65,38.013,41
66,38.599,41
67,39.179,41
68,39.75,41
69,40.32,41
70,40.895,41
71,41.475,41
72,42.052,41
73,42.645,41
74,43.257,41
75,43.87,41
76,44.471,41
77,45.076,41
78,45.68,41
79,46.275,41
80,46.854,41
81,47.426,41
82,47.994,41
83,48.557,41
84,49.112,41
85,49.659,41
86,50.202,41
87,50.753,41
88,51.345,41
89,51.967,41
90,52.571,41
91,53.176,41
92,53.787,41
93,54.391,41
94,54.98,41
95,55.555,41
96,56.114,41
97,56.664,41
98,57.198,41
99,57.73,41
100,58.277,41
101,58.899,41
102,59.524,41
103,60.157,41
104,60.811,41
105,61.332,41
106,61.909,41
1,0.148,42
2,0.718,42
3,1.543,42
4,2.379,42
5,3.198,42
6,4.035,42
7,4.915,42
8,5.763,42
9,6.598,42
10,7.449,42
11,8.303,42
12,9.119,42
13,9.954,42
14,10.793,42
15,11.606,42
16,12.378,42
17,13.152,42
18,13.933,42
19,14.72,42
20,15.534,42
21,16.363,42
22,17.171,42
23,18,42
24,18.831,42
25,19.636,42
26,20.435,42
27,21.225,42
28,22.036,42
29,22.893,42
30,23.747,42
31,24.579,42
32,25.396,42
33,26.203,42
34,27.004,42
35,27.784,42
36,28.563,42
37,29.341,42
38,30.106,42
39,30.855,42
40,31.613,42
41,32.386,42
42,33.174,42
43,33.97,42
44,34.799,42
45,35.645,42
46,36.491,42
47,37.333,42
48,38.171,42
49,38.985,42
50,39.8,42
51,40.62,42
52,41.42,42
53,42.227,42
54,43.058,42
55,43.888,42
56,44.717,42
57,45.563,42
58,46.376,42
59,47.164,42
60,47.979,42
61,48.793,42
62,49.612,42
63,50.438,42
64,51.254,42
65,52.054,42
66,52.857,42
67,53.667,42
68,54.472,42
69,55.277,42
70,56.112,42
71,56.942,42
72,57.739,42
73,58.562,42
74,59.394,42
75,60.213,42
76,61.064,42
77,61.922,42
78,62.384,42
79,62.982,42
1,0.384,43
2,1.149,43
3,1.828,43
4,2.465,43
5,3.095,43
6,3.757,43
7,4.458,43
8,5.164,43
9,5.908,43
10,6.676,43
11,7.415,43
12,8.109,43
13,8.776,43
14,9.43,43
15,10.076,43
16,10.743,43
17,11.425,43
18,12.138,43
19,12.872,43
20,13.623,43
21,14.386,43
22,15.129,43
23,15.849,43
24,16.537,43
25,17.18,43
26,17.8,43
27,18.412,43
28,19.024,43
29,19.64,43
30,20.271,43
31,20.908,43
32,21.55,43
33,22.206,43
34,22.891,43
35,23.586,43
36,24.26,43
37,24.902,43
38,25.525,43
39,26.147,43
40,26.788,43
41,27.449,43
42,28.126,43
43,28.811,43
44,29.473,43
45,30.12,43
46,30.759,43
47,31.395,43
48,32.042,43
49,32.678,43
50,33.324,43
51,33.964,43
52,34.606,43
53,35.248,43
54,35.898,43
55,36.555,43
56,37.219,43
57,37.895,43
58,38.579,43
59,39.239,43
60,39.873,43
61,40.502,43
62,41.148,43
63,41.843,43
64,42.552,43
65,43.238,43
66,43.892,43
67,44.54,43
68,45.185,43
69,45.844,43
70,46.515,43
71,47.168,43
72,47.798,43
73,48.426,43
74,49.054,43
75,49.694,43
76,50.343,43
77,51.003,43
78,51.677,43
79,52.358,43
80,53.042,43
81,53.711,43
82,54.372,43
83,55.026,43
84,55.665,43
85,56.304,43
86,56.951,43
87,57.624,43
88,58.283,43
89,58.925,43
90,59.547,43
91,60.164,43
92,60.782,43
93,61.419,43
94,61.96,43
1,0.072,44
2,0.536,44
3,1.159,44
4,1.799,44
5,2.398,44
6,3.019,44
7,3.686,44
8,4.378,44
9,5.043,44
10,5.65,44
11,6.24,44
12,6.875,44
13,7.566,44
14,8.246,44
15,8.923,44
16,9.599,44
17,10.254,44
18,10.889,44
19,11.485,44
20,12.083,44
21,12.683,44
22,13.307,44
23,13.969,44
24,14.602,44
25,15.251,44
26,15.9,44
27,16.591,44
28,17.272,44
29,17.909,44
30,18.55,44
31,19.166,44
32,19.774,44
33,20.396,44
34,21.022,44
35,21.652,44
36,22.281,44
37,22.905,44
38,23.506,44
39,24.093,44
40,24.683,44
41,25.286,44
42,25.907,44
43,26.54,44
44,27.166,44
45,27.775,44
46,28.385,44
47,28.985,44
48,29.581,44
49,30.19,44
50,30.79,44
51,31.395,44
52,32.005,44
53,32.596,44
54,33.179,44
55,33.772,44
56,34.394,44
57,35.074,44
58,35.752,44
59,36.391,44
60,37.079,44
61,37.754,44
62,38.448,44
63,39.075,44
64,39.698,44
65,40.313,44
66,40.922,44
67,41.532,44
68,42.121,44
69,42.726,44
70,43.332,44
71,43.946,44
72,44.551,44
73,45.17,44
74,45.777,44
75,46.374,44
76,46.953,44
77,47.552,44
78,48.161,44
79,48.788,44
80,49.402,44
81,50.004,44
82,50.608,44
83,51.231,44
84,51.871,44
85,52.499,44
86,53.108,44
87,53.713,44
88,54.322,44
89,54.93,44
90,55.517,44
91,56.105,44
92,56.705,44
93,57.314,44
94,57.91,44
95,58.524,44
96,59.145,44
97,59.768,44
98,60.373,44
99,60.963,44
100,61.561,44
101,62.179,44
102,62.803,44
103,63.407,44
104,63.99,44
105,64.484,44
1,0.345,45
2,0.9,45
3,1.457,45
4,2.018,45
5,2.588,45
6,3.181,45
7,3.83,45
8,4.622,45
9,5.358,45
10,6.071,45
11,6.758,45
12,7.407,45
13,8.027,45
14,8.639,45
15,9.234,45
16,9.823,45
17,10.419,45
18,11.012,45
19,11.602,45
20,12.182,45
21,12.76,45
22,13.338,45
23,13.909,45
24,14.477,45
25,15.045,45
26,15.613,45
27,16.174,45
28,16.734,45
29,17.297,45
30,17.863,45
31,18.426,45
32,18.99,45
33,19.557,45
34,20.12,45
35,20.685,45
36,21.243,45
37,21.81,45
38,22.37,45
39,22.923,45
40,23.484,45
41,24.04,45
42,24.597,45
43,25.145,45
44,25.695,45
45,26.242,45
46,26.789,45
47,27.335,45
48,27.88,45
49,28.424,45
50,28.97,45
51,29.516,45
52,30.067,45
53,30.619,45
54,31.168,45
55,31.718,45
56,32.271,45
57,32.827,45
58,33.384,45
59,33.939,45
60,34.49,45
61,35.037,45
62,35.584,45
63,36.133,45
64,36.678,45
65,37.219,45
66,37.76,45
67,38.298,45
68,38.838,45
69,39.373,45
70,39.908,45
71,40.447,45
72,40.984,45
73,41.526,45
74,42.066,45
75,42.61,45
76,43.159,45
77,43.711,45
78,44.264,45
79,44.813,45
80,45.365,45
81,45.918,45
82,46.467,45
83,47.013,45
84,47.559,45
85,48.104,45
86,48.645,45
87,49.181,45
88,49.717,45
89,50.254,45
90,50.793,45
91,51.333,45
92,51.872,45
93,52.426,45
94,52.993,45
95,53.573,45
96,54.145,45
97,54.701,45
98,55.286,45
99,55.86,45
100,56.434,45
101,57.003,45
102,57.562,45
103,58.119,45
104,58.674,45
105,59.225,45
106,59.773,45
107,60.312,45
108,60.857,45
109,61.399,45
110,61.942,45
111,62.482,45
112,63.022,45
113,63.567,45
1,0.222,46
2,0.704,46
3,1.407,46
4,2.084,46
5,2.748,46
6,3.412,46
7,4.089,46
8,4.771,46
9,5.466,46
10,6.192,46
11,6.926,46
12,7.67,46
13,8.429,46
14,9.183,46
15,9.936,46
16,10.707,46
17,11.441,46
18,12.148,46
19,12.827,46
20,13.498,46
21,14.194,46
22,14.907,46
23,15.581,46
24,16.254,46
25,16.922,46
26,17.59,46
27,18.301,46
28,19.026,46
29,19.749,46
30,20.456,46
31,21.172,46
32,21.884,46
33,22.578,46
34,23.233,46
35,23.89,46
36,24.529,46
37,25.162,46
38,25.794,46
39,26.423,46
40,27.052,46
41,27.691,46
42,28.331,46
43,28.958,46
44,29.598,46
45,30.245,46
46,30.895,46
47,31.566,46
48,32.232,46
49,32.883,46
50,33.53,46
51,34.174,46
52,34.808,46
53,35.428,46
54,36.055,46
55,36.685,46
56,37.327,46
57,37.974,46
58,38.633,46
59,39.286,46
60,39.915,46
61,40.553,46
62,41.197,46
63,41.843,46
64,42.497,46
65,43.167,46
66,43.84,46
67,44.521,46
68,45.215,46
69,45.884,46
70,46.563,46
71,47.269,46
72,47.938,46
73,48.614,46
74,49.282,46
75,49.954,46
76,50.635,46
77,51.341,46
78,52.044,46
79,52.751,46
80,53.465,46
81,54.147,46
82,54.823,46
83,55.501,46
84,56.171,46
85,56.833,46
86,57.499,46
87,58.17,46
88,58.841,46
89,59.537,46
90,60.217,46
91,60.877,46
92,61.531,46
93,62.199,46
94,62.873,46
95,63.58,46
1,0.023,48
2,0.559,48
3,1.014,48
4,1.552,48
5,2.021,48
6,2.512,48
7,3.133,48
8,3.87,48
9,4.356,48
10,5.052,48
11,5.787,48
12,6.293,48
13,6.801,48
14,7.457,48
15,8.33,48
16,9.015,48
17,9.595,48
18,10.114,48
19,10.593,48
20,11.303,48
21,12.146,48
22,12.733,48
23,13.292,48
24,13.802,48
25,14.257,48
26,14.736,48
27,15.601,48
28,16.304,48
29,16.824,48
30,17.297,48
31,18.077,48
32,18.744,48
33,19.321,48
34,20.141,48
35,20.624,48
36,21.131,48
37,21.684,48
38,22.144,48
39,22.685,48
40,23.562,48
41,24.278,48
42,24.906,48
43,25.764,48
44,26.526,48
45,27.241,48
46,27.947,48
47,28.465,48
48,29.126,48
49,29.854,48
50,30.451,48
51,30.944,48
52,31.623,48
53,32.442,48
54,32.986,48
55,33.842,48
56,34.627,48
57,35.251,48
58,35.859,48
59,36.447,48
60,36.938,48
61,37.826,48
62,38.719,48
63,39.255,48
64,39.748,48
65,40.271,48
66,40.958,48
67,41.496,48
68,42.03,48
69,42.483,48
70,42.943,48
71,43.685,48
72,44.152,48
73,44.648,48
74,45.419,48
75,45.879,48
76,46.583,48
77,47.25,48
78,47.856,48
79,48.609,48
80,49.431,48
81,49.993,48
82,50.553,48
83,51.122,48
84,51.808,48
85,52.273,48
86,52.96,48
87,53.683,48
88,54.141,48
89,54.776,48
90,55.287,48
91,56.152,48
92,56.63,48
93,57.174,48
94,57.792,48
95,58.65,48
96,59.152,48
97,59.665,48
98,60.187,48
99,60.734,48
100,61.411,48
101,61.913,48
102,62.439,48
103,63.253,48
104,63.72,48
105,64.344,48
106,65.084,48
107,65.579,48
108,66.135,48
109,66.722,48
110,67.254,48
111,67.856,48
112,68.308,48
113,68.806,48
114,69.286,48
115,69.857,48
1,0.489,49
2,1.119,49
3,1.741,49
4,2.363,49
5,2.992,49
6,3.616,49
7,4.243,49
8,4.871,49
9,5.506,49
10,6.153,49
11,6.775,49
12,7.388,49
13,8.016,49
14,8.649,49
15,9.291,49
16,9.928,49
17,10.551,49
18,11.187,49
19,11.821,49
20,12.446,49
21,13.084,49
22,13.715,49
23,14.339,49
24,14.987,49
25,15.632,49
26,16.267,49
27,16.904,49
28,17.532,49
29,18.152,49
30,18.777,49
31,19.398,49
32,20.018,49
33,20.659,49
34,21.295,49
35,21.93,49
36,22.585,49
37,23.251,49
38,23.905,49
39,24.544,49
40,25.201,49
41,25.855,49
42,26.497,49
43,27.141,49
44,27.787,49
45,28.433,49
46,29.067,49
47,29.714,49
48,30.366,49
49,31.015,49
50,31.658,49
51,32.33,49
52,32.992,49
53,33.642,49
54,34.292,49
55,34.943,49
56,35.581,49
57,36.23,49
58,36.884,49
59,37.531,49
60,38.178,49
61,38.837,49
62,39.496,49
63,40.144,49
64,40.775,49
65,41.398,49
66,42.025,49
67,42.667,49
68,43.315,49
69,43.961,49
70,44.608,49
71,45.262,49
72,45.915,49
73,46.562,49
74,47.195,49
75,47.831,49
76,48.465,49
77,49.09,49
78,49.721,49
79,50.362,49
80,51.018,49
81,51.682,49
82,52.338,49
83,53.002,49
84,53.678,49
85,54.34,49
86,54.992,49
87,55.616,49
88,56.245,49
89,56.857,49
90,57.459,49
91,58.054,49
92,58.668,49
93,59.292,49
94,59.936,49
95,60.575,49
96,61.245,49
97,61.918,49
98,62.58,49
99,63.249,49
100,63.973,49
1,0.143,50
2,0.656,50
3,1.177,50
4,1.72,50
5,2.267,50
6,2.813,50
7,3.41,50
8,3.999,50
9,4.584,50
10,5.15,50
11,5.723,50
12,6.289,50
13,6.846,50
14,7.389,50
15,7.945,50
16,8.49,50
17,9.037,50
18,9.58,50
19,10.118,50
20,10.665,50
21,11.206,50
22,11.744,50
23,12.288,50
24,12.833,50
25,13.379,50
26,13.931,50
27,14.484,50
28,15.065,50
29,15.641,50
30,16.221,50
31,16.808,50
32,17.379,50
33,17.944,50
34,18.499,50
35,19.059,50
36,19.616,50
37,20.181,50
38,20.754,50
39,21.313,50
40,21.858,50
41,22.393,50
42,22.932,50
43,23.466,50
44,24.004,50
45,24.545,50
46,25.078,50
47,25.62,50
48,26.168,50
49,26.731,50
50,27.311,50
51,27.883,50
52,28.45,50
53,29.017,50
54,29.584,50
55,30.145,50
56,30.69,50
57,31.236,50
58,31.772,50
59,32.305,50
60,32.839,50
61,33.37,50
62,33.893,50
63,34.424,50
64,34.955,50
65,35.493,50
66,36.032,50
67,36.571,50
68,37.119,50
69,37.689,50
70,38.273,50
71,38.86,50
72,39.429,50
73,39.983,50
74,40.529,50
75,41.072,50
76,41.613,50
77,42.141,50
78,42.669,50
79,43.185,50
80,43.695,50
81,44.213,50
82,44.737,50
83,45.259,50
84,45.775,50
85,46.302,50
86,46.842,50
87,47.389,50
88,47.962,50
89,48.546,50
90,49.12,50
91,49.703,50
92,50.29,50
93,50.884,50
94,51.466,50
95,52.041,50
96,52.594,50
97,53.144,50
98,53.693,50
99,54.245,50
100,54.791,50
101,55.342,50
102,55.893,50
103,56.45,50
104,57.018,50
105,57.59,50
106,58.145,50
107,58.707,50
108,59.27,50
109,59.827,50
110,60.394,50
111,60.962,50
112,61.523,50
113,62.08,50
114,62.631,50
115,63.179,50
116,63.732,50
1,0.332,51
2,0.807,51
3,1.281,51
4,1.753,51
5,2.23,51
6,2.713,51
7,3.209,51
8,3.711,51
9,4.21,51
10,4.71,51
11,5.221,51
12,5.734,51
13,6.248,51
14,6.749,51
15,7.249,51
16,7.749,51
17,8.251,51
18,8.753,51
19,9.256,51
20,9.76,51
21,10.264,51
22,10.767,51
23,11.272,51
24,11.771,51
25,12.264,51
26,12.754,51
27,13.243,51
28,13.734,51
29,14.228,51
30,14.729,51
31,15.232,51
32,15.734,51
33,16.238,51
34,16.746,51
35,17.26,51
36,17.776,51
37,18.293,51
38,18.807,51
39,19.324,51
40,19.839,51
41,20.36,51
42,20.88,51
43,21.394,51
44,21.902,51
45,22.405,51
46,22.911,51
47,23.418,51
48,23.922,51
49,24.426,51
50,24.929,51
51,25.435,51
52,25.944,51
53,26.45,51
54,26.96,51
55,27.467,51
56,27.976,51
57,28.484,51
58,28.994,51
59,29.511,51
60,30.026,51
61,30.541,51
62,31.056,51
63,31.562,51
64,32.066,51
65,32.559,51
66,33.048,51
67,33.54,51
68,34.032,51
69,34.527,51
70,35.027,51
71,35.532,51
72,36.038,51
73,36.541,51
74,37.045,51
75,37.546,51
76,38.048,51
77,38.55,51
78,39.048,51
79,39.546,51
80,40.038,51
81,40.528,51
82,41.02,51
83,41.513,51
84,42.011,51
85,42.51,51
86,43.01,51
87,43.511,51
88,44.008,51
89,44.507,51
90,45.008,51
91,45.51,51
92,46.014,51
93,46.514,51
94,47.013,51
95,47.514,51
96,48.016,51
97,48.516,51
98,49.013,51
99,49.513,51
100,50.014,51
101,50.517,51
102,51.019,51
103,51.515,51
104,52.011,51
105,52.505,51
106,52.999,51
107,53.497,51
108,53.996,51
109,54.498,51
110,55.001,51
111,55.503,51
112,56.008,51
113,56.513,51
114,57.02,51
115,57.528,51
116,58.03,51
117,58.529,51
118,59.025,51
119,59.519,51
120,60.016,51
121,60.513,51
122,61.012,51
123,61.511,51
124,62.007,51
125,62.507,51
126,63.004,51
127,63.504,51
1,0.109,52
2,0.743,52
3,1.396,52
4,2.07,52
5,2.742,52
6,3.435,52
7,4.174,52
8,4.886,52
9,5.565,52
10,6.252,52
11,6.909,52
12,7.549,52
13,8.189,52
14,8.813,52
15,9.433,52
16,10.085,52
17,10.781,52
18,11.509,52
19,12.263,52
20,12.994,52
21,13.706,52
22,14.443,52
23,15.168,52
24,15.874,52
25,16.584,52
26,17.263,52
27,17.93,52
28,18.595,52
29,19.237,52
30,19.877,52
31,20.538,52
32,21.19,52
33,21.85,52
34,22.561,52
35,23.331,52
36,24.118,52
37,24.877,52
38,25.612,52
39,26.323,52
40,27.017,52
41,27.744,52
42,28.481,52
43,29.211,52
44,29.943,52
45,30.664,52
46,31.368,52
47,32.089,52
48,32.781,52
49,33.473,52
50,34.14,52
51,34.781,52
52,35.432,52
53,36.128,52
54,36.85,52
55,37.604,52
56,38.345,52
57,39.04,52
58,39.729,52
59,40.411,52
60,41.075,52
61,41.751,52
62,42.443,52
63,43.109,52
64,43.815,52
65,44.543,52
66,45.265,52
67,45.979,52
68,46.682,52
69,47.362,52
70,48.054,52
71,48.766,52
72,49.443,52
73,50.129,52
74,50.79,52
75,51.425,52
76,52.049,52
77,52.659,52
78,53.242,52
79,53.819,52
80,54.4,52
81,54.986,52
82,55.586,52
83,56.197,52
84,56.798,52
85,57.415,52
86,58.044,52
87,58.676,52
88,59.3,52
89,59.94,52
90,60.571,52
91,61.206,52
92,61.838,52
93,62.453,52
94,63.061,52
95,63.662,52
1,0.191,54
2,0.747,54
3,1.556,54
4,2.382,54
5,3.182,54
6,3.989,54
7,4.791,54
8,5.574,54
9,6.361,54
10,7.125,54
11,7.893,54
12,8.637,54
13,9.357,54
14,10.098,54
15,10.851,54
16,11.607,54
17,12.389,54
18,13.192,54
19,13.976,54
20,14.791,54
21,15.622,54
22,16.431,54
23,17.253,54
24,18.063,54
25,18.881,54
26,19.701,54
27,20.527,54
28,21.362,54
29,22.164,54
30,22.986,54
31,23.789,54
32,24.599,54
33,25.421,54
34,26.216,54
35,27.043,54
36,27.84,54
37,28.661,54
38,29.484,54
39,30.267,54
40,31.085,54
41,31.882,54
42,32.692,54
43,33.515,54
44,34.308,54
45,35.118,54
46,35.901,54
47,36.693,54
48,37.463,54
49,38.25,54
50,39.032,54
51,39.794,54
52,40.573,54
53,41.335,54
54,42.109,54
55,42.873,54
56,43.651,54
57,44.416,54
58,45.194,54
59,45.976,54
60,46.739,54
61,47.512,54
62,48.27,54
63,49.052,54
64,49.838,54
65,50.608,54
66,51.389,54
67,52.153,54
68,52.931,54
69,53.687,54
70,54.46,54
71,55.214,54
72,55.977,54
73,56.727,54
74,57.495,54
75,58.249,54
76,59.021,54
77,59.794,54
78,60.58,54
79,61.34,54
80,62.113,54
81,62.897,54
82,63.685,54
1,0.412,55
2,1.087,55
3,1.761,55
4,2.458,55
5,3.169,55
6,3.934,55
7,4.724,55
8,5.486,55
9,6.291,55
10,7.074,55
11,7.814,55
12,8.552,55
13,9.274,55
14,9.965,55
15,10.657,55
16,11.363,55
17,12.045,55
18,12.714,55
19,13.389,55
20,14.075,55
21,14.803,55
22,15.551,55
23,16.258,55
24,16.982,55
25,17.695,55
26,18.41,55
27,19.08,55
28,19.766,55
29,20.442,55
30,21.134,55
31,21.806,55
32,22.48,55
33,23.151,55
34,23.803,55
35,24.443,55
36,25.083,55
37,25.728,55
38,26.377,55
39,27.009,55
40,27.658,55
41,28.335,55
42,29.032,55
43,29.723,55
44,30.421,55
45,31.115,55
46,31.815,55
47,32.507,55
48,33.191,55
49,33.874,55
50,34.55,55
51,35.225,55
52,35.923,55
53,36.669,55
54,37.419,55
55,38.188,55
56,38.96,55
57,39.695,55
58,40.457,55
59,41.216,55
60,41.969,55
61,42.738,55
62,43.529,55
63,44.288,55
64,45.028,55
65,45.764,55
66,46.501,55
67,47.205,55
68,47.92,55
69,48.635,55
70,49.352,55
71,50.07,55
72,50.808,55
73,51.554,55
74,52.28,55
75,52.996,55
76,53.72,55
77,54.408,55
78,55.117,55
79,55.84,55
80,56.587,55
81,57.322,55
82,58.089,55
83,58.891,55
84,59.65,55
85,60.408,55
86,61.183,55
87,61.95,55
88,62.694,55
89,63.472,55
90,64.27,55
91,64.902,55
1,0.177,56
2,0.748,56
3,1.311,56
4,1.864,56
5,2.408,56
6,2.953,56
7,3.495,56
8,4.035,56
9,4.569,56
10,5.102,56
11,5.64,56
12,6.183,56
13,6.715,56
14,7.253,56
15,7.793,56
16,8.333,56
17,8.867,56
18,9.397,56
19,9.927,56
20,10.463,56
21,11.004,56
22,11.546,56
23,12.089,56
24,12.629,56
25,13.167,56
26,13.705,56
27,14.247,56
28,14.794,56
29,15.339,56
30,15.881,56
31,16.426,56
32,16.967,56
33,17.502,56
34,18.035,56
35,18.568,56
36,19.102,56
37,19.634,56
38,20.164,56
39,20.693,56
40,21.222,56
41,21.759,56
42,22.3,56
43,22.843,56
44,23.39,56
45,23.936,56
46,24.481,56
47,25.031,56
48,25.586,56
49,26.143,56
50,26.703,56
51,27.263,56
52,27.823,56
53,28.377,56
54,28.932,56
55,29.484,56
56,30.034,56
57,30.579,56
58,31.128,56
59,31.682,56
60,32.237,56
61,32.792,56
62,33.345,56
63,33.898,56
64,34.456,56
65,35.016,56
66,35.581,56
67,36.148,56
68,36.721,56
69,37.297,56
70,37.885,56
71,38.471,56
72,39.062,56
73,39.652,56
74,40.239,56
75,40.823,56
76,41.405,56
77,41.99,56
78,42.581,56
79,43.174,56
80,43.764,56
81,44.353,56
82,44.948,56
83,45.552,56
84,46.184,56
85,46.814,56
86,47.43,56
87,48.038,56
88,48.642,56
89,49.237,56
90,49.821,56
91,50.405,56
92,50.983,56
93,51.555,56
94,52.125,56
95,52.703,56
96,53.289,56
97,53.887,56
98,54.494,56
99,55.103,56
100,55.723,56
101,56.355,56
102,56.991,56
103,57.621,56
104,58.24,56
105,58.858,56
106,59.47,56
107,60.074,56
108,60.665,56
109,61.249,56
110,61.845,56
111,62.441,56
112,63.053,56
113,63.691,56
1,0.018,57
2,0.913,57
3,1.799,57
4,2.656,57
5,3.509,57
6,4.337,57
7,5.182,57
8,5.992,57
9,6.819,57
10,7.642,57
11,8.466,57
12,9.296,57
13,10.092,57
14,10.919,57
15,11.743,57
16,12.575,57
17,13.455,57
18,14.313,57
19,15.22,57
20,16.106,57
21,17.011,57
22,17.462,57
23,17.917,57
24,18.785,57
25,19.674,57
26,20.519,57
27,21.431,57
28,22.337,57
29,23.238,57
30,23.718,57
31,24.169,57
32,25.037,57
33,25.938,57
34,26.803,57
35,27.663,57
36,28.526,57
37,29.341,57
38,30.181,57
39,31.03,57
40,31.834,57
41,32.674,57
42,33.488,57
43,34.281,57
44,35.118,57
45,35.908,57
46,36.759,57
47,37.633,57
48,38.475,57
49,39.327,57
50,40.203,57
51,41.011,57
52,41.841,57
53,42.671,57
54,43.445,57
55,44.265,57
56,45.076,57
57,45.87,57
58,46.712,57
59,47.503,57
60,48.332,57
61,49.163,57
62,49.951,57
63,50.805,57
64,51.661,57
65,52.496,57
66,53.38,57
67,54.22,57
68,55.097,57
69,55.969,57
70,56.809,57
71,57.668,57
72,58.505,57
73,59.303,57
74,60.132,57
75,60.929,57
76,61.711,57
77,62.537,57
78,63.347,57
1,0.47,58
2,1.065,58
3,1.653,58
4,2.247,58
5,2.852,58
6,3.482,58
7,4.11,58
8,4.714,58
9,5.323,58
10,5.924,58
11,6.488,58
12,7.047,58
13,7.613,58
14,8.187,58
15,8.782,58
16,9.406,58
17,10.025,58
18,10.644,58
19,11.253,58
20,11.871,58
21,12.481,58
22,13.084,58
23,13.693,58
24,14.315,58
25,14.954,58
26,15.578,58
27,16.208,58
28,16.848,58
29,17.497,58
30,18.142,58
31,18.799,58
32,19.449,58
33,20.085,58
34,20.717,58
35,21.347,58
36,21.978,58
37,22.583,58
38,23.199,58
39,23.812,58
40,24.433,58
41,25.028,58
42,25.635,58
43,26.245,58
44,26.86,58
45,27.457,58
46,28.082,58
47,28.683,58
48,29.277,58
49,29.874,58
50,30.465,58
51,31.053,58
52,31.64,58
53,32.237,58
54,32.837,58
55,33.447,58
56,34.057,58
57,34.693,58
58,35.325,58
59,35.959,58
60,36.57,58
61,37.195,58
62,37.808,58
63,38.41,58
64,39.011,58
65,39.621,58
66,40.245,58
67,40.871,58
68,41.49,58
69,42.11,58
70,42.742,58
71,43.356,58
72,43.959,58
73,44.567,58
74,45.179,58
75,45.792,58
76,46.385,58
77,46.982,58
78,47.594,58
79,48.207,58
80,48.809,58
81,49.428,58
82,50.036,58
83,50.628,58
84,51.219,58
85,51.799,58
86,52.385,58
87,52.966,58
88,53.555,58
89,54.15,58
90,54.752,58
91,55.343,58
92,55.949,58
93,56.552,58
94,57.163,58
95,57.751,58
96,58.342,58
97,58.919,58
98,59.48,58
99,60.027,58
100,60.563,58
101,61.088,58
102,61.617,58
103,62.161,58
104,62.709,58
105,63.436,58
106,63.972,58
1,0.027,59
2,0.669,59
3,1.341,59
4,2.003,59
5,2.665,59
6,3.337,59
7,4.034,59
8,4.77,59
9,5.656,59
10,6.115,59
11,6.599,59
12,7.496,59
13,8.341,59
14,9.162,59
15,9.962,59
16,10.723,59
17,11.459,59
18,12.16,59
19,12.858,59
20,13.586,59
21,14.355,59
22,15.193,59
23,16.04,59
24,16.822,59
25,17.569,59
26,18.303,59
27,19.066,59
28,19.861,59
29,20.615,59
30,21.29,59
31,21.918,59
32,22.58,59
33,23.252,59
34,23.948,59
35,24.698,59
36,25.498,59
37,26.322,59
38,27.108,59
39,27.863,59
40,28.614,59
41,29.365,59
42,30.11,59
43,30.873,59
44,31.684,59
45,32.533,59
46,33.373,59
47,34.164,59
48,34.983,59
49,35.826,59
50,36.664,59
51,37.452,59
52,38.223,59
53,39.022,59
54,39.87,59
55,40.724,59
56,41.553,59
57,42.365,59
58,43.188,59
59,43.987,59
60,44.788,59
61,45.631,59
62,46.503,59
63,47.385,59
64,48.18,59
65,48.945,59
66,49.723,59
67,50.553,59
68,51.445,59
69,52.295,59
70,53.1,59
71,53.892,59
72,54.694,59
73,55.494,59
74,56.256,59
75,56.998,59
76,57.768,59
77,58.59,59
78,59.467,59
79,60.34,59
80,61.16,59
81,61.966,59
82,62.799,59
83,63.671,59
84,64.488,59
